Data from S118521__5__17-03-50-544.txt Node

Date: Tue Aug 23 17:03:50 PDT 2022
User: cemma
Spectrometer: S11852
Trigger mode: 0
Resolution mode: 1024 pixels
Integration Time (sec): 1.000000E-1
Scans to average: 1
Nonlinearity correction enabled: false
Boxcar width: 0
Baseline correction enabled: true
XAxis mode: Wavelengths
Number of Pixels in Spectrum: 1024
>>>>>Begin Spectral Data<<<<<
188.378	-4
188.827	6
189.275	0
189.723	-5
190.172	6
190.62	-1
191.068	2
191.517	2
191.965	7
192.414	1
192.863	1
193.311	4
193.76	-6
194.208	3
194.657	1
195.106	-1
195.555	0
196.004	-1
196.452	-1
196.901	-1
197.35	-3
197.799	3
198.248	5
198.697	2
199.146	-5
199.596	0
200.045	3
200.494	-1
200.943	2
201.392	0
201.842	4
202.291	-1
202.74	-9
203.19	3
203.639	-3
204.089	5
204.538	-3
204.988	1
205.437	6
205.887	1
206.337	-8
206.786	0
207.236	1
207.686	1
208.136	1
208.586	4
209.036	-5
209.486	-4
209.936	2
210.386	3
210.836	0
211.286	-1
211.736	1
212.186	0
212.636	-3
213.086	1
213.537	-3
213.987	1
214.437	3
214.888	-1
215.338	-5
215.789	0
216.239	2
216.69	-1
217.14	-1
217.591	-4
218.041	1
218.492	-2
218.943	-3
219.394	4
219.844	2
220.295	-10
220.746	4
221.197	-1
221.648	1
222.099	0
222.55	3
223.001	2
223.452	-3
223.903	5
224.354	4
224.806	5
225.257	0
225.708	1
226.16	-1
226.611	4
227.062	1
227.514	2
227.965	4
228.417	-4
228.868	4
229.32	1
229.772	7
230.223	-4
230.675	3
231.127	0
231.578	-2
232.03	1
232.482	-4
232.934	3
233.386	3
233.838	4
234.29	0
234.742	1
235.194	4
235.646	5
236.098	-1
236.551	3
237.003	-2
237.455	0
237.907	-1
238.36	2
238.812	7
239.265	1
239.717	-2
240.17	-2
240.622	-3
241.075	1
241.527	6
241.98	0
242.433	6
242.886	3
243.338	10
243.791	5
244.244	5
244.697	9
245.15	13
245.603	16
246.056	10
246.509	14
246.962	17
247.415	17
247.868	16
248.321	20
248.775	25
249.228	22
249.681	23
250.135	26
250.588	27
251.042	28
251.495	25
251.949	29
252.402	19
252.856	27
253.309	27
253.763	19
254.217	21
254.671	25
255.124	21
255.578	14
256.032	18
256.486	10
256.94	18
257.394	19
257.848	13
258.302	13
258.756	13
259.21	17
259.664	8
260.119	7
260.573	4
261.027	11
261.482	6
261.936	9
262.39	2
262.845	6
263.299	5
263.754	6
264.209	8
264.663	3
265.118	3
265.573	-3
266.027	2
266.482	5
266.937	6
267.392	4
267.847	4
268.302	1
268.757	3
269.212	-1
269.667	4
270.122	7
270.577	2
271.032	2
271.487	-1
271.943	4
272.398	3
272.853	-1
273.309	7
273.764	1
274.22	0
274.675	1
275.131	3
275.586	1
276.042	-1
276.497	2
276.953	0
277.409	2
277.865	3
278.321	-4
278.776	0
279.232	0
279.688	6
280.144	0
280.6	-2
281.056	4
281.512	5
281.969	1
282.425	4
282.881	-2
283.337	0
283.794	1
284.25	3
284.706	-8
285.163	-1
285.619	-3
286.076	-5
286.532	1
286.989	-1
287.446	-1
287.902	2
288.359	-7
288.816	2
289.272	-3
289.729	-1
290.186	-4
290.643	4
291.1	-2
291.557	-1
292.014	5
292.471	-4
292.928	2
293.385	0
293.843	2
294.3	-6
294.757	-1
295.215	-7
295.672	0
296.129	-2
296.587	-4
297.044	1
297.502	2
297.959	-4
298.417	1
298.875	-6
299.332	-1
299.79	0
300.248	-2
300.706	1
301.164	5
301.621	2
302.079	4
302.537	7
302.995	3
303.453	-5
303.912	0
304.37	1
304.828	-6
305.286	-6
305.744	0
306.203	-1
306.661	3
307.12	-6
307.578	-7
308.036	-1
308.495	-5
308.954	0
309.412	5
309.871	-5
310.329	-1
310.788	0
311.247	1
311.706	4
312.165	1
312.624	0
313.083	1
313.542	0
314.001	1
314.46	3
314.919	0
315.378	-7
315.837	3
316.296	1
316.756	7
317.215	-4
317.674	-6
318.134	-4
318.593	3
319.053	0
319.512	-1
319.972	-1
320.431	2
320.891	0
321.351	-1
321.81	-2
322.27	2
322.73	2
323.19	0
323.65	-1
324.11	-1
324.57	7
325.03	-3
325.49	1
325.95	3
326.41	1
326.87	-10
327.331	0
327.791	4
328.251	0
328.712	1
329.172	-4
329.632	7
330.093	0
330.553	-5
331.014	3
331.475	1
331.935	-1
332.396	-1
332.857	1
333.318	1
333.778	2
334.239	-3
334.7	-3
335.161	3
335.622	3
336.083	-3
336.544	-6
337.006	3
337.467	2
337.928	0
338.389	-4
338.851	2
339.312	-2
339.773	2
340.235	3
340.696	-8
341.158	-2
341.619	3
342.081	-3
342.543	1
343.004	2
343.466	4
343.928	-2
344.39	0
344.851	0
345.313	4
345.775	1
346.237	2
346.699	3
347.161	2
347.624	6
348.086	0
348.548	3
349.01	1
349.473	-2
349.935	1
350.397	-1
350.86	3
351.322	3
351.785	-5
352.247	-4
352.71	1
353.173	1
353.635	0
354.098	2
354.561	-6
355.024	1
355.486	-3
355.949	-3
356.412	-1
356.875	3
357.338	6
357.801	2
358.265	-3
358.728	-5
359.191	4
359.654	5
360.117	-1
360.581	1
361.044	0
361.508	2
361.971	-2
362.435	0
362.898	4
363.362	0
363.826	2
364.289	6
364.753	3
365.217	-3
365.681	-4
366.144	-1
366.608	3
367.072	0
367.536	1
368	-3
368.464	2
368.929	-3
369.393	3
369.857	-1
370.321	3
370.786	4
371.25	-1
371.714	0
372.179	0
372.643	0
373.108	1
373.572	5
374.037	2
374.502	4
374.966	4
375.431	2
375.896	5
376.361	-2
376.826	-2
377.291	1
377.756	2
378.221	2
378.686	-3
379.151	-2
379.616	2
380.081	-3
380.547	-12
381.012	2
381.477	-4
381.943	1
382.408	2
382.873	2
383.339	2
383.805	4
384.27	2
384.736	2
385.201	-6
385.667	1
386.133	2
386.599	0
387.065	1
387.531	3
387.997	2
388.463	0
388.929	1
389.395	0
389.861	5
390.327	2
390.793	1
391.26	2
391.726	5
392.192	2
392.659	0
393.125	0
393.592	3
394.058	0
394.525	3
394.992	0
395.458	3
395.925	1
396.392	6
396.859	1
397.325	8
397.792	0
398.259	4
398.726	3
399.193	6
399.66	5
400.128	-1
400.595	3
401.062	2
401.529	0
401.997	-1
402.464	3
402.931	5
403.399	0
403.866	3
404.334	8
404.802	5
405.269	4
405.737	3
406.205	7
406.672	3
407.14	-3
407.608	8
408.076	10
408.544	7
409.012	13
409.48	9
409.948	10
410.416	10
410.884	13
411.353	6
411.821	7
412.289	13
412.758	11
413.226	6
413.695	8
414.163	8
414.632	12
415.1	13
415.569	13
416.038	4
416.506	11
416.975	13
417.444	13
417.913	14
418.382	13
418.851	11
419.32	14
419.789	20
420.258	14
420.727	17
421.196	13
421.666	13
422.135	20
422.604	16
423.074	16
423.543	17
424.013	9
424.482	13
424.952	10
425.421	12
425.891	21
426.361	9
426.831	16
427.3	11
427.77	8
428.24	18
428.71	18
429.18	17
429.65	13
430.12	13
430.59	11
431.061	16
431.531	13
432.001	16
432.471	17
432.942	17
433.412	11
433.883	17
434.353	17
434.824	16
435.294	19
435.765	21
436.236	12
436.706	15
437.177	19
437.648	18
438.119	14
438.59	16
439.061	18
439.532	21
440.003	18
440.474	14
440.945	15
441.417	21
441.888	20
442.359	19
442.831	23
443.302	17
443.773	22
444.245	8
444.716	22
445.188	22
445.66	18
446.131	13
446.603	15
447.075	22
447.547	18
448.019	12
448.491	21
448.963	21
449.435	9
449.907	14
450.379	15
450.851	17
451.323	16
451.795	14
452.268	14
452.74	9
453.213	11
453.685	12
454.158	9
454.63	11
455.103	15
455.575	15
456.048	12
456.521	17
456.994	14
457.466	10
457.939	15
458.412	13
458.885	14
459.358	13
459.831	17
460.304	15
460.778	17
461.251	11
461.724	9
462.197	13
462.671	14
463.144	15
463.618	13
464.091	15
464.565	10
465.038	11
465.512	14
465.986	12
466.459	14
466.933	9
467.407	14
467.881	7
468.355	12
468.829	12
469.303	11
469.777	11
470.251	12
470.725	9
471.2	13
471.674	16
472.148	10
472.623	8
473.097	9
473.572	10
474.046	13
474.521	15
474.995	14
475.47	14
475.945	11
476.42	14
476.894	7
477.369	12
477.844	13
478.319	13
478.794	6
479.269	10
479.744	9
480.219	6
480.695	8
481.17	12
481.645	13
482.121	12
482.596	8
483.071	4
483.547	9
484.023	8
484.498	-1
484.974	6
485.449	9
485.925	8
486.401	8
486.877	10
487.353	5
487.829	10
488.305	9
488.781	4
489.257	9
489.733	7
490.209	6
490.685	11
491.162	12
491.638	10
492.114	9
492.591	10
493.067	10
493.544	7
494.02	8
494.497	5
494.974	9
495.451	4
495.927	6
496.404	7
496.881	7
497.358	12
497.835	9
498.312	5
498.789	2
499.266	6
499.743	6
500.221	10
500.698	1
501.175	7
501.653	12
502.13	13
502.608	5
503.085	6
503.563	2
504.04	4
504.518	5
504.996	4
505.473	6
505.951	10
506.429	7
506.907	7
507.385	10
507.863	5
508.341	7
508.819	3
509.298	1
509.776	-8
510.254	6
510.732	10
511.211	6
511.689	7
512.168	3
512.646	4
513.125	2
513.603	5
514.082	7
514.561	7
515.04	0
515.518	1
515.997	6
516.476	5
516.955	3
517.434	4
517.913	7
518.392	4
518.872	6
519.351	1
519.83	3
520.31	2
520.789	7
521.268	8
521.748	3
522.227	-1
522.707	2
523.187	4
523.666	8
524.146	-2
524.626	0
525.106	6
525.586	0
526.065	5
526.545	-2
527.026	7
527.506	2
527.986	2
528.466	4
528.946	2
529.427	5
529.907	6
530.387	5
530.868	5
531.348	-3
531.829	-2
532.309	6
532.79	-1
533.271	2
533.752	2
534.232	6
534.713	2
535.194	3
535.675	2
536.156	6
536.637	1
537.118	3
537.599	0
538.081	3
538.562	4
539.043	3
539.525	1
540.006	2
540.488	5
540.969	3
541.451	1
541.932	3
542.414	-2
542.896	1
543.377	8
543.859	0
544.341	1
544.823	-3
545.305	3
545.787	4
546.269	0
546.751	-3
547.234	-1
547.716	1
548.198	2
548.68	4
549.163	6
549.645	-1
550.128	4
550.61	5
551.093	3
551.576	7
552.058	0
552.541	4
553.024	-1
553.507	2
553.99	1
554.473	5
554.956	5
555.439	-2
555.922	2
556.405	3
556.888	-1
557.372	5
557.855	1
558.338	-1
558.822	-3
559.305	6
559.789	4
560.273	1
560.756	-2
561.24	1
561.724	-3
562.207	6
562.691	11
563.175	2
563.659	2
564.143	0
564.627	0
565.111	5
565.596	3
566.08	2
566.564	4
567.048	1
567.533	5
568.017	-3
568.502	2
568.986	-1
569.471	-1
569.955	3
570.44	-2
570.925	0
571.41	4
571.895	-1
572.379	-1
572.864	5
573.349	2
573.835	7
574.32	1
574.805	-1
575.29	2
575.775	3
576.261	0
576.746	5
577.231	2
577.717	3
578.202	1
578.688	-4
579.174	4
579.659	-7
580.145	5
580.631	3
581.117	1
581.603	3
582.089	-14
582.575	2
583.061	6
583.547	-4
584.033	5
584.519	3
585.006	4
585.492	1
585.978	-2
586.465	-1
586.951	-1
587.438	6
587.924	0
588.411	3
588.898	6
589.385	5
589.871	-2
590.358	2
590.845	3
591.332	1
591.819	2
592.306	0
592.793	-1
593.281	4
593.768	5
594.255	2
594.743	0
595.23	1
595.717	0
596.205	1
596.692	5
597.18	7
597.668	-1
598.156	0
598.643	3
599.131	-1
599.619	5
600.107	2
600.595	-2
601.083	-4
601.571	7
602.059	2
602.547	1
603.036	-3
603.524	-3
604.012	-2
604.501	2
604.989	2
605.478	3
605.966	1
606.455	1
606.944	2
607.433	4
607.921	2
608.41	5
608.899	5
609.388	2
609.877	3
610.366	-2
610.855	0
611.345	6
611.834	1
612.323	6
612.812	-2
613.302	-1
613.791	-1
614.281	2
614.77	0
615.26	2
615.75	-1
616.239	2
616.729	-2
617.219	5
617.709	-1
618.199	1
618.689	2
619.179	2
619.669	7
620.159	-6
620.649	3
621.14	1
621.63	0
622.12	4
622.611	2
623.101	1
623.592	-3
624.082	4
624.573	2
625.064	0
625.555	6
626.045	1
626.536	0
627.027	-2
627.518	2
628.009	7
628.5	1
628.992	1
629.483	0
629.974	-2
630.465	1
630.957	1
631.448	-1
631.94	1
632.431	3
632.923	3
633.414	8
633.906	3
634.398	-3
634.89	2
635.382	-1
635.873	-3
636.365	-6
636.857	4
637.35	6
637.842	6
638.334	3
638.826	2
639.318	0
639.811	0
640.303	-6
640.796	-1
641.288	4
641.781	-3
642.273	-1
642.766	6
643.259	-1
643.752	-7
644.245	0
644.738	-2
645.231	6
645.724	1
646.217	1
646.71	5
647.203	-2
647.696	9
648.19	1
648.683	6
649.176	-7
649.67	1
650.163	1
650.657	0
651.151	-6
651.644	1
652.138	6
652.632	3
653.126	1
653.62	2
654.114	4
654.608	-3
655.102	1
655.596	5
656.09	-1
656.584	0
657.079	-1
657.573	2
658.067	1
658.562	-2
659.057	-1
659.551	0
660.046	6
660.54	1
661.035	-2
661.53	4
662.025	2
662.52	3
663.015	3
663.51	7
664.005	2
664.5	2
664.995	7
665.491	2
665.986	5
666.481	-7
666.977	0
667.472	3
667.968	1
668.463	1
668.959	1
669.455	-3
