Data from S118521__3__17-03-38-813.txt Node

Date: Tue Aug 23 17:03:38 PDT 2022
User: cemma
Spectrometer: S11852
Trigger mode: 0
Resolution mode: 1024 pixels
Integration Time (sec): 1.000000E-1
Scans to average: 1
Nonlinearity correction enabled: false
Boxcar width: 0
Baseline correction enabled: true
XAxis mode: Wavelengths
Number of Pixels in Spectrum: 1024
>>>>>Begin Spectral Data<<<<<
188.378	-5
188.827	2
189.275	2
189.723	-7
190.172	6
190.62	2
191.068	5
191.517	2
191.965	5
192.414	3
192.863	3
193.311	2
193.76	-6
194.208	1
194.657	3
195.106	4
195.555	2
196.004	-1
196.452	0
196.901	5
197.35	-4
197.799	1
198.248	5
198.697	0
199.146	-6
199.596	3
200.045	5
200.494	-7
200.943	0
201.392	3
201.842	2
202.291	-2
202.74	-3
203.19	0
203.639	-7
204.089	3
204.538	-4
204.988	-1
205.437	4
205.887	2
206.337	-7
206.786	0
207.236	-2
207.686	2
208.136	3
208.586	-2
209.036	-2
209.486	-4
209.936	3
210.386	5
210.836	-3
211.286	3
211.736	0
212.186	2
212.636	-4
213.086	1
213.537	-1
213.987	3
214.437	3
214.888	-1
215.338	-4
215.789	1
216.239	4
216.69	-3
217.14	-1
217.591	-1
218.041	6
218.492	-2
218.943	-3
219.394	1
219.844	-1
220.295	-12
220.746	0
221.197	-6
221.648	0
222.099	-2
222.55	4
223.001	0
223.452	-2
223.903	2
224.354	1
224.806	5
225.257	-3
225.708	1
226.16	-1
226.611	2
227.062	-2
227.514	7
227.965	0
228.417	-1
228.868	2
229.32	-3
229.772	2
230.223	-3
230.675	-2
231.127	1
231.578	-3
232.03	2
232.482	-3
232.934	0
233.386	2
233.838	2
234.29	1
234.742	2
235.194	1
235.646	7
236.098	5
236.551	2
237.003	-1
237.455	0
237.907	-1
238.36	2
238.812	5
239.265	4
239.717	-2
240.17	2
240.622	-3
241.075	4
241.527	3
241.98	2
242.433	3
242.886	9
243.338	6
243.791	5
244.244	6
244.697	7
245.15	14
245.603	10
246.056	9
246.509	16
246.962	14
247.415	19
247.868	11
248.321	16
248.775	23
249.228	25
249.681	22
250.135	26
250.588	25
251.042	24
251.495	28
251.949	27
252.402	16
252.856	24
253.309	26
253.763	13
254.217	22
254.671	21
255.124	21
255.578	20
256.032	11
256.486	5
256.94	15
257.394	19
257.848	13
258.302	11
258.756	16
259.21	19
259.664	6
260.119	5
260.573	5
261.027	9
261.482	3
261.936	8
262.39	3
262.845	6
263.299	5
263.754	6
264.209	7
264.663	3
265.118	5
265.573	-4
266.027	-1
266.482	5
266.937	5
267.392	3
267.847	1
268.302	0
268.757	5
269.212	-1
269.667	2
270.122	3
270.577	5
271.032	-6
271.487	5
271.943	1
272.398	-2
272.853	-1
273.309	-1
273.764	0
274.22	2
274.675	-1
275.131	0
275.586	2
276.042	1
276.497	1
276.953	2
277.409	-2
277.865	-1
278.321	-1
278.776	2
279.232	2
279.688	2
280.144	-3
280.6	1
281.056	4
281.512	-2
281.969	2
282.425	5
282.881	-8
283.337	1
283.794	0
284.25	-1
284.706	-2
285.163	-2
285.619	-3
286.076	-3
286.532	-2
286.989	1
287.446	1
287.902	3
288.359	-7
288.816	-4
289.272	1
289.729	0
290.186	0
290.643	1
291.1	0
291.557	-3
292.014	0
292.471	-3
292.928	5
293.385	0
293.843	1
294.3	-1
294.757	1
295.215	-8
295.672	-1
296.129	0
296.587	-4
297.044	2
297.502	4
297.959	1
298.417	2
298.875	-3
299.332	-1
299.79	-1
300.248	2
300.706	1
301.164	0
301.621	-1
302.079	1
302.537	6
302.995	-2
303.453	-4
303.912	0
304.37	-3
304.828	-1
305.286	-10
305.744	-2
306.203	5
306.661	5
307.12	-8
307.578	-9
308.036	0
308.495	4
308.954	0
309.412	1
309.871	-9
310.329	-2
310.788	2
311.247	1
311.706	3
312.165	-1
312.624	1
313.083	0
313.542	0
314.001	4
314.46	2
314.919	7
315.378	-8
315.837	0
316.296	7
316.756	2
317.215	-3
317.674	-5
318.134	-4
318.593	3
319.053	1
319.512	1
319.972	-4
320.431	6
320.891	0
321.351	1
321.81	-2
322.27	0
322.73	5
323.19	2
323.65	0
324.11	-2
324.57	3
325.03	-2
325.49	2
325.95	-1
326.41	-2
326.87	-8
327.331	-4
327.791	4
328.251	-2
328.712	-2
329.172	-5
329.632	5
330.093	-4
330.553	-4
331.014	1
331.475	0
331.935	3
332.396	5
332.857	-2
333.318	4
333.778	-3
334.239	1
334.7	-1
335.161	3
335.622	1
336.083	-3
336.544	-7
337.006	5
337.467	-1
337.928	-2
338.389	2
338.851	-2
339.312	-1
339.773	0
340.235	6
340.696	-4
341.158	-6
341.619	4
342.081	-4
342.543	1
343.004	5
343.466	5
343.928	-3
344.39	1
344.851	6
345.313	-1
345.775	-1
346.237	-1
346.699	-1
347.161	4
347.624	-4
348.086	1
348.548	-1
349.01	-1
349.473	3
349.935	-1
350.397	-5
350.86	-1
351.322	2
351.785	1
352.247	0
352.71	-1
353.173	1
353.635	0
354.098	-3
354.561	-5
355.024	6
355.486	-2
355.949	-2
356.412	-1
356.875	0
357.338	3
357.801	-2
358.265	-3
358.728	-1
359.191	3
359.654	1
360.117	-2
360.581	-2
361.044	-1
361.508	-3
361.971	-4
362.435	2
362.898	3
363.362	-1
363.826	-2
364.289	-2
364.753	3
365.217	2
365.681	-3
366.144	3
366.608	-1
367.072	2
367.536	-2
368	-4
368.464	3
368.929	-3
369.393	0
369.857	-2
370.321	-2
370.786	2
371.25	1
371.714	-3
372.179	-2
372.643	2
373.108	-2
373.572	4
374.037	1
374.502	5
374.966	2
375.431	5
375.896	3
376.361	-1
376.826	-4
377.291	1
377.756	2
378.221	3
378.686	-3
379.151	0
379.616	0
380.081	1
380.547	-9
381.012	3
381.477	-2
381.943	-4
382.408	0
382.873	1
383.339	3
383.805	-2
384.27	2
384.736	1
385.201	2
385.667	1
386.133	4
386.599	1
387.065	-3
387.531	3
387.997	1
388.463	2
388.929	-1
389.395	-2
389.861	1
390.327	1
390.793	0
391.26	0
391.726	4
392.192	4
392.659	1
393.125	-1
393.592	4
394.058	6
394.525	0
394.992	4
395.458	-4
395.925	1
396.392	8
396.859	0
397.325	5
397.792	-1
398.259	2
398.726	1
399.193	4
399.66	-2
400.128	0
400.595	3
401.062	3
401.529	-3
401.997	-1
402.464	3
402.931	2
403.399	-2
403.866	10
404.334	5
404.802	2
405.269	4
405.737	1
406.205	3
406.672	2
407.14	0
407.608	6
408.076	4
408.544	4
409.012	8
409.48	11
409.948	2
410.416	5
410.884	11
411.353	8
411.821	10
412.289	12
412.758	11
413.226	8
413.695	5
414.163	6
414.632	8
415.1	4
415.569	11
416.038	5
416.506	12
416.975	6
417.444	11
417.913	12
418.382	11
418.851	13
419.32	11
419.789	15
420.258	19
420.727	14
421.196	12
421.666	5
422.135	17
422.604	14
423.074	14
423.543	12
424.013	16
424.482	14
424.952	12
425.421	11
425.891	13
426.361	6
426.831	12
427.3	11
427.77	4
428.24	13
428.71	14
429.18	14
429.65	15
430.12	9
430.59	7
431.061	16
431.531	10
432.001	15
432.471	15
432.942	11
433.412	13
433.883	18
434.353	16
434.824	13
435.294	17
435.765	17
436.236	12
436.706	14
437.177	15
437.648	18
438.119	15
438.59	13
439.061	17
439.532	17
440.003	16
440.474	18
440.945	15
441.417	19
441.888	16
442.359	15
442.831	20
443.302	13
443.773	19
444.245	11
444.716	15
445.188	18
445.66	19
446.131	10
446.603	14
447.075	17
447.547	10
448.019	14
448.491	17
448.963	15
449.435	5
449.907	13
450.379	11
450.851	14
451.323	13
451.795	12
452.268	13
452.74	15
453.213	8
453.685	8
454.158	8
454.63	11
455.103	7
455.575	17
456.048	7
456.521	15
456.994	12
457.466	14
457.939	13
458.412	10
458.885	13
459.358	13
459.831	15
460.304	9
460.778	16
461.251	12
461.724	9
462.197	15
462.671	12
463.144	13
463.618	8
464.091	16
464.565	6
465.038	9
465.512	14
465.986	13
466.459	11
466.933	8
467.407	12
467.881	8
468.355	12
468.829	9
469.303	9
469.777	10
470.251	14
470.725	4
471.2	11
471.674	14
472.148	7
472.623	5
473.097	4
473.572	14
474.046	8
474.521	14
474.995	10
475.47	10
475.945	8
476.42	12
476.894	8
477.369	10
477.844	10
478.319	13
478.794	3
479.269	11
479.744	8
480.219	8
480.695	7
481.17	12
481.645	13
482.121	5
482.596	12
483.071	4
483.547	11
484.023	9
484.498	-1
484.974	7
485.449	8
485.925	8
486.401	6
486.877	4
487.353	4
487.829	4
488.305	9
488.781	5
489.257	9
489.733	7
490.209	8
490.685	12
491.162	7
491.638	8
492.114	5
492.591	7
493.067	8
493.544	4
494.02	4
494.497	3
494.974	10
495.451	2
495.927	8
496.404	6
496.881	8
497.358	7
497.835	6
498.312	8
498.789	4
499.266	1
499.743	6
500.221	7
500.698	-1
501.175	2
501.653	11
502.13	10
502.608	4
503.085	5
503.563	5
504.04	4
504.518	7
504.996	1
505.473	7
505.951	5
506.429	4
506.907	1
507.385	9
507.863	1
508.341	5
508.819	5
509.298	1
509.776	-5
510.254	4
510.732	11
511.211	1
511.689	5
512.168	-3
512.646	3
513.125	2
513.603	1
514.082	2
514.561	4
515.04	3
515.518	7
515.997	4
516.476	7
516.955	4
517.434	2
517.913	1
518.392	7
518.872	7
519.351	5
519.83	-3
520.31	1
520.789	6
521.268	7
521.748	-2
522.227	3
522.707	1
523.187	-2
523.666	7
524.146	-1
524.626	-1
525.106	6
525.586	-4
526.065	1
526.545	-1
527.026	5
527.506	4
527.986	4
528.466	1
528.946	3
529.427	3
529.907	3
530.387	1
530.868	6
531.348	-6
531.829	-3
532.309	5
532.79	-1
533.271	3
533.752	4
534.232	4
534.713	7
535.194	4
535.675	0
536.156	3
536.637	-2
537.118	4
537.599	4
538.081	-1
538.562	2
539.043	2
539.525	4
540.006	-3
540.488	2
540.969	-1
541.451	5
541.932	7
542.414	-1
542.896	-1
543.377	1
543.859	-2
544.341	3
544.823	2
545.305	-1
545.787	-2
546.269	-2
546.751	-2
547.234	0
547.716	1
548.198	1
548.68	5
549.163	3
549.645	1
550.128	1
550.61	5
551.093	-4
551.576	4
552.058	1
552.541	-2
553.024	0
553.507	1
553.99	1
554.473	2
554.956	8
555.439	4
555.922	2
556.405	0
556.888	1
557.372	2
557.855	1
558.338	5
558.822	-3
559.305	2
559.789	6
560.273	-2
560.756	3
561.24	0
561.724	-4
562.207	0
562.691	6
563.175	-2
563.659	2
564.143	-1
564.627	4
565.111	0
565.596	3
566.08	0
566.564	5
567.048	-1
567.533	-2
568.017	6
568.502	2
568.986	4
569.471	2
569.955	-1
570.44	-2
570.925	3
571.41	1
571.895	3
572.379	0
572.864	4
573.349	4
573.835	2
574.32	0
574.805	1
575.29	1
575.775	1
576.261	4
576.746	5
577.231	2
577.717	5
578.202	-1
578.688	1
579.174	-2
579.659	-6
580.145	5
580.631	1
581.117	4
581.603	2
582.089	-21
582.575	4
583.061	-1
583.547	-2
584.033	4
584.519	2
585.006	5
585.492	2
585.978	1
586.465	-4
586.951	-6
587.438	5
587.924	4
588.411	3
588.898	3
589.385	4
589.871	2
590.358	1
590.845	0
591.332	1
591.819	3
592.306	4
592.793	4
593.281	0
593.768	2
594.255	-4
594.743	2
595.23	0
595.717	-1
596.205	0
596.692	4
597.18	3
597.668	-1
598.156	2
598.643	1
599.131	-1
599.619	8
600.107	-2
600.595	-1
601.083	-2
601.571	4
602.059	-1
602.547	2
603.036	-1
603.524	-3
604.012	-8
604.501	4
604.989	2
605.478	1
605.966	5
606.455	2
606.944	1
607.433	2
607.921	3
608.41	-3
608.899	4
609.388	-2
609.877	3
610.366	3
610.855	-9
611.345	6
611.834	0
612.323	6
612.812	-3
613.302	-2
613.791	2
614.281	3
614.77	2
615.26	2
615.75	2
616.239	3
616.729	-2
617.219	4
617.709	0
618.199	3
618.689	2
619.179	1
619.669	3
620.159	-6
620.649	0
621.14	-1
621.63	5
622.12	-1
622.611	-2
623.101	-3
623.592	5
624.082	2
624.573	1
625.064	3
625.555	2
626.045	0
626.536	0
627.027	-1
627.518	4
628.009	5
628.5	-1
628.992	3
629.483	1
629.974	-5
630.465	-3
630.957	-2
631.448	-1
631.94	0
632.431	2
632.923	2
633.414	2
633.906	4
634.398	-7
634.89	4
635.382	-3
635.873	-1
636.365	-3
636.857	0
637.35	1
637.842	6
638.334	3
638.826	-1
639.318	1
639.811	-3
640.303	-8
640.796	-2
641.288	4
641.781	-4
642.273	-1
642.766	3
643.259	0
643.752	-6
644.245	-2
644.738	0
645.231	6
645.724	0
646.217	-3
646.71	4
647.203	-1
647.696	4
648.19	0
648.683	1
649.176	-10
649.67	4
650.163	1
650.657	-1
651.151	-6
651.644	1
652.138	7
652.632	2
653.126	5
653.62	-3
654.114	5
654.608	1
655.102	-2
655.596	1
656.09	2
656.584	2
657.079	1
657.573	-3
658.067	3
658.562	-7
659.057	2
659.551	1
660.046	-2
660.54	-1
661.035	2
661.53	-1
662.025	1
662.52	3
663.015	-1
663.51	-2
664.005	2
664.5	3
664.995	2
665.491	4
665.986	7
666.481	-2
666.977	-1
667.472	4
667.968	-1
668.463	2
668.959	-2
669.455	-11
